ECG
-0.29
-0.3
-0.32
-0.29
-0.31
-0.33
-0.33
-0.36
-0.39
-0.39
-0.35
-0.31
-0.27
-0.2
-0.15
-0.15
-0.16
-0.12
-0.14
-0.16
-0.18
-0.15
-0.18
-0.2
-0.17
-0.19
-0.22
-0.21
-0.21
-0.22
-0.24
-0.21
-0.21
-0.23
-0.23
-0.21
-0.23
-0.23
-0.21
-0.21
-0.24
-0.26
-0.24
-0.24
-0.26
-0.22
-0.24
-0.25
-0.27
-0.26
-0.25
-0.27
-0.26
-0.24
-0.27
-0.27
-0.21
-0.18
-0.2
-0.14
-0.07
0.12
0.07
0.11
0.09
-0.04
-0.06
-0.06
-0.2
-0.3
-0.28
-0.26
-0.27
-0.34
-0.32
0.84
3.93
5.11
5
1.32
-0.67
-0.48
-0.28
-0.38
-0.39
-0.39
-0.4
-0.41
-0.37
-0.37
-0.4
-0.36
-0.35
-0.36
-0.38
-0.33
-0.33
-0.34
-0.33
-0.31
-0.33
-0.35
-0.33
-0.35
-0.36
-0.4
-0.41
-0.45
-0.49
-0.46
-0.45
-0.41
-0.35
-0.25
-0.2
-0.17
-0.12
-0.1
-0.12
-0.12
-0.1
-0.12
-0.12
-0.1
-0.1
-0.13
-0.14
-0.12
-0.13
-0.16
-0.14
-0.14
-0.18
-0.19
-0.18
-0.19
-0.21
-0.19
-0.2
-0.21
-0.24
-0.21
-0.22
-0.23
-0.21
-0.2
-0.22
-0.23
-0.2
-0.21
-0.23
-0.23
-0.22
-0.24
-0.25
-0.21
-0.2
-0.22
-0.21
-0.2
-0.21
-0.19
-0.09
-0.1
-0.08
-0.03
0.22
0.16
0.17
0.14
0.04
0.02
-0.02
-0.15
-0.22
-0.25
-0.21
-0.19
-0.36
-0.07
1.44
4.62
5.11
4.36
0.19
-0.42
-0.38
-0.24
-0.33
-0.36
-0.37
-0.35
-0.37
-0.38
-0.36
-0.36
-0.36
-0.33
-0.32
-0.32
-0.34
-0.29
-0.3
-0.32
-0.32
-0.3
-0.32
-0.35
-0.33
-0.36
-0.4
-0.43
-0.45
-0.48
-0.49
-0.42
-0.35
-0.31
-0.23
-0.15
-0.13
-0.12
-0.09
-0.08
-0.11
-0.12
-0.09
-0.11
-0.12
-0.08
-0.1
-0.12
-0.12
-0.11
-0.13
-0.14
-0.13
-0.14
-0.16
-0.17
-0.15
-0.17
-0.19
-0.16
-0.17
-0.18
-0.18
-0.16
-0.18
-0.2
-0.16
-0.17
-0.19
-0.18
-0.16
-0.18
-0.2
-0.16
-0.17
-0.18
-0.18
-0.15
-0.16
-0.17
-0.11
-0.08
-0.09
-0.04
0.01
0.18
0.2
0.21
0.22
0.06
0.07
0.06
-0.06
-0.18
-0.19
-0.18
-0.18
-0.24
-0.26
0.94
4.03
5.11
4.93
1.11
-0.55
-0.42
-0.23
-0.34
-0.35
-0.35
-0.36
-0.37
-0.33
-0.32
-0.34
-0.32
-0.3
-0.31
-0.32
-0.28
-0.28
-0.3
-0.3
-0.27
-0.27
-0.32
-0.28
-0.32
-0.35
-0.36
-0.37
-0.43
-0.47
-0.43
-0.43
-0.38
-0.31
-0.2
-0.15
-0.11
-0.05
-0.05
-0.07
-0.07
-0.04
-0.06
-0.08
-0.06
-0.07
-0.09
-0.11
-0.08
-0.11
-0.11
-0.12
-0.11
-0.12
-0.15
-0.14
-0.14
-0.18
-0.19
-0.16
-0.15
-0.18
-0.15
-0.16
-0.17
-0.17
-0.14
-0.17
-0.18
-0.16
-0.17
-0.19
-0.21
-0.17
-0.16
-0.19
-0.17
-0.14
-0.1
-0.11
-0.05
0.01
0.17
0.17
0.16
0.14
0.01
0.01
-0.03
-0.14
-0.23
-0.23
-0.23
-0.23
-0.29
-0.05
1.32
4.42
5.11
4.9
0.66
-0.49
-0.47
-0.25
-0.35
-0.35
-0.37
-0.4
-0.34
-0.36
-0.35
-0.36
-0.33
-0.33
-0.33
-0.31
-0.29
-0.31
-0.31
-0.27
-0.28
-0.29
-0.26
-0.25
-0.27
-0.29
-0.26
-0.3
-0.34
-0.34
-0.33
-0.34
-0.31
-0.23
-0.18
-0.15
-0.11
-0.08
-0.09
-0.1
-0.08
-0.1
-0.13
-0.12
-0.11
-0.13
-0.16
-0.13
-0.14
-0.17
-0.18
-0.15
-0.16
-0.17
-0.14
-0.15
-0.16
-0.17
-0.14
-0.16
-0.18
-0.15
-0.14
-0.16
-0.17
-0.14
-0.14
-0.17
-0.14
-0.15
-0.17
-0.19
-0.16
-0.17
-0.18
-0.15
-0.15
-0.1
-0.11
-0.04
-0.01
0.12
0.22
0.2
0.21
0.07
0.09
0.07
-0.06
-0.15
-0.17
-0.19
-0.19
-0.18
-0.32
0.68
3.45
5.11
5.11
2.27
-0.62
-0.38
-0.19
-0.25
-0.27
-0.29
-0.31
-0.29
-0.27
-0.3
-0.3
-0.25
-0.27
-0.28
-0.24
-0.24
-0.25
-0.24
-0.22
-0.23
-0.24
-0.23
-0.23
-0.27
-0.28
-0.29
-0.33
-0.37
-0.38
-0.39
-0.39
-0.34
-0.24
-0.16
-0.11
-0.03
-0.01
-0.01
-0.01
0.01
-0.01
-0.02
0.02
0.02
-0.01
-0.02
0
-0.03
-0.06
-0.04
-0.04
-0.07
-0.09
-0.08
-0.1
-0.13
-0.1
-0.12
-0.13
-0.15
-0.12
-0.14
-0.15
-0.14
-0.14
-0.15
-0.15
-0.13
-0.14
-0.15
-0.13
-0.13
-0.15
-0.17
-0.14
-0.14
-0.15
-0.12
-0.13
-0.12
-0.1
-0.05
-0.01
0.02
0.15
0.26
0.21
0.2
0.11
0.09
0.05
-0.04
-0.12
-0.16
-0.16
-0.13
-0.14
-0.33
0.74
3.52
5.11
5.11
1.86
-0.55
-0.39
-0.19
-0.26
-0.31
-0.33
-0.31
-0.31
-0.34
-0.34
-0.31
-0.32
-0.34
-0.3
-0.3
-0.3
-0.32
-0.28
-0.28
-0.29
-0.28
-0.28
-0.3
-0.33
-0.32
-0.35
-0.4
-0.42
-0.43
-0.47
-0.46
-0.38
-0.31
-0.24
-0.15
-0.09
-0.08
-0.06
-0.02
-0.03
-0.04
-0.04
-0.02
-0.04
-0.07
-0.04
-0.05
-0.08
-0.09
-0.07
-0.09
-0.12
-0.1
-0.09
-0.13
-0.14
-0.13
-0.15
-0.16
-0.14
-0.13
-0.16
-0.18
-0.15
-0.15
-0.18
-0.16
-0.16
-0.19
-0.19
-0.15
-0.18
-0.19
-0.18
-0.16
-0.17
-0.17
-0.14
-0.15
-0.15
-0.14
-0.07
-0.09
-0.05
0.02
0.2
0.21
0.21
0.21
0.08
0.07
0.08
-0.03
-0.17
-0.19
-0.17
-0.15
-0.21
-0.28
0.82
3.62
5.11
5.11
1.88
-0.62
-0.42
-0.2
-0.3
-0.35
-0.35
-0.34
-0.36
-0.35
-0.32
-0.35
-0.34
-0.31
-0.3
-0.32
-0.3
-0.29
-0.28
-0.3
-0.29
-0.27
-0.32
-0.3
-0.3
-0.35
-0.4
-0.39
-0.42
-0.47
-0.49
-0.45
-0.43
-0.38
-0.27
-0.19
-0.14
-0.13
-0.09
-0.1
-0.13
-0.1
-0.08
-0.12
-0.13
-0.12
-0.13
-0.14
-0.16
-0.13
-0.16
-0.18
-0.16
-0.16
-0.19
-0.19
-0.19
-0.2
-0.23
-0.19
-0.19
-0.23
-0.22
-0.21
-0.21
-0.22
-0.2
-0.19
-0.2
-0.2
-0.2
-0.2
-0.24
-0.19
-0.19
-0.2
-0.2
-0.19
-0.21
-0.22
-0.18
-0.15
-0.16
-0.13
-0.04
0.09
0.16
0.16
0.16
0.01
-0.02
-0.01
-0.13
-0.27
-0.24
-0.25
-0.27
-0.31
-0.32
0.81
3.5
5.11
5.11
1.88
-0.71
-0.55
-0.28
-0.38
-0.39
-0.4
-0.41
-0.43
-0.4
-0.38
-0.39
-0.39
-0.37
-0.37
-0.36
-0.33
-0.33
-0.34
-0.34
-0.33
-0.32
-0.35
-0.31
-0.31
-0.34
-0.37
-0.37
-0.41
-0.45
-0.44
-0.43
-0.41
-0.36
-0.26
-0.22
-0.2
-0.15
-0.15
-0.16
-0.17
-0.16
-0.17
-0.19
-0.16
-0.17
-0.2
-0.22
-0.2
-0.21
-0.22
-0.19
-0.2
-0.23
-0.25
-0.2
-0.22
-0.23
-0.22
-0.22
-0.24
-0.23
-0.22
-0.22
-0.24
-0.21
-0.2
-0.23
-0.24
-0.22
-0.23
-0.24
-0.21
-0.21
-0.23
-0.24
-0.21
-0.21
-0.24
-0.17
-0.13
-0.1
-0.07
0.06
0.22
0.14
0.18
0.1
0.02
0.01
-0.02
-0.16
-0.21
-0.22
-0.18
-0.2
-0.43
0.34
2.53
5.11
5.11
3.18
-0.63
-0.42
-0.23
-0.27
-0.33
-0.33
-0.32
-0.32
-0.33
-0.31
-0.31
-0.31
-0.31
-0.28
-0.29
-0.3
-0.27
-0.27
-0.29
-0.29
-0.26
-0.26
-0.29
-0.28
-0.3
-0.33
-0.37
-0.37
-0.41
-0.45
-0.42
-0.39
-0.33
-0.27
-0.14
-0.09
-0.06
-0.04
-0.02
-0.04
-0.04
-0.02
-0.02
-0.05
-0.03
-0.03
-0.06
-0.08
-0.06
-0.07
-0.09
-0.1
-0.09
-0.11
-0.13
-0.1
-0.11
-0.13
-0.14
-0.13
-0.13
-0.15
-0.14
-0.14
-0.16
-0.18
-0.15
-0.15
-0.18
-0.16
-0.16
-0.18
-0.19
-0.14
-0.15
-0.15
-0.13
-0.12
-0.09
-0.08
-0.01
0.04
0.15
0.28
0.24
0.24
0.11
0.1
0.11
0
-0.13
-0.14
-0.14
-0.14
-0.12
-0.33
0.45
2.54
5.11
5.11
3.43
-0.51
-0.32
-0.24
-0.25
-0.27
-0.3
-0.31
-0.31
-0.3
-0.31
-0.32
-0.27
-0.26
-0.28
-0.27
-0.24
-0.26
-0.26
-0.24
-0.23
-0.25
-0.26
-0.24
-0.27
-0.3
-0.29
-0.33
-0.39
-0.42
-0.42
-0.42
-0.4
-0.32
-0.23
-0.17
-0.13
-0.04
-0.03
-0.03
-0.02
-0.02
-0.04
-0.06
-0.03
-0.02
-0.05
-0.06
-0.04
-0.06
-0.08
-0.06
-0.05
-0.08
-0.1
-0.07
-0.08
-0.11
-0.1
-0.09
-0.11
-0.12
-0.09
-0.11
-0.15
-0.14
-0.14
-0.12
-0.15
-0.11
-0.11
-0.14
-0.13
-0.1
-0.12
-0.15
-0.1
-0.11
-0.12
-0.13
-0.09
-0.09
-0.05
-0.05
0.01
0.03
0.26
0.23
0.24
0.18
0.09
0.08
0.04
-0.12
-0.15
-0.17
-0.18
-0.16
-0.25
-0.08
1.24
4.39
5.11
4.78
0.74
-0.42
-0.35
-0.21
-0.27
-0.29
-0.32
-0.32
-0.29
-0.29
-0.29
-0.28
-0.28
-0.28
-0.29
-0.25
-0.26
-0.26
-0.26
-0.25
-0.27
-0.28
-0.25
-0.28
-0.31
-0.33
-0.35
-0.4
-0.45
-0.44
-0.48
-0.46
-0.41
-0.3
-0.23
-0.17
-0.09
-0.06
-0.07
-0.05
-0.04
-0.07
-0.08
-0.05
-0.04
-0.06
-0.08
-0.07
-0.09
-0.1
-0.07
-0.1
-0.11
-0.11
-0.09
-0.13
-0.14
-0.12
-0.11
-0.13
-0.16
-0.12
-0.15
-0.17
-0.15
-0.14
-0.16
-0.17
-0.14
-0.13
-0.17
-0.16
-0.14
-0.16
-0.18
-0.14
-0.15
-0.17
-0.17
-0.14
-0.1
-0.12
-0.05
0
0.08
0.26
0.2
0.21
0.11
0.08
0.06
-0.02
-0.18
-0.16
-0.16
-0.19
-0.15
-0.32
0.5
2.71
5.11
5.11
3.29
-0.63
-0.38
-0.25
-0.27
-0.32
-0.32
-0.34
-0.34
-0.32
-0.33
-0.33
-0.31
-0.31
-0.32
-0.3
-0.29
-0.26
-0.29
-0.27
-0.27
-0.28
-0.3
-0.25
-0.28
-0.3
-0.31
-0.33
-0.37
-0.41
-0.4
-0.42
-0.39
-0.35
-0.28
-0.21
-0.17
-0.11
-0.08
-0.09
-0.1
-0.09
-0.1
-0.14
-0.09
-0.14
-0.13
-0.17
-0.12
-0.18
-0.18
-0.17
-0.15
-0.19
-0.19
-0.16
-0.18
-0.21
-0.16
-0.18
-0.21
-0.24
-0.21
-0.21
-0.22
-0.18
-0.19
-0.2
-0.21
-0.21
-0.2
-0.23
-0.22
-0.21
-0.25
-0.25
-0.22
-0.23
-0.23
-0.21
-0.17
-0.17
-0.13
-0.03
0.16
0.07
0.1
0.06
-0.04
-0.07
-0.1
-0.22
-0.29
-0.3
-0.27
-0.26
-0.41
0.21
1.89
5.08
5.11
4.09
-0.39
-0.46
-0.4
-0.27
-0.38
-0.4
-0.37
-0.38
-0.38
-0.38
-0.36
-0.36
-0.38
-0.34
-0.33
-0.34
-0.33
-0.3
-0.31
-0.33
-0.29
-0.3
-0.31
-0.33
-0.32
-0.35
-0.39
-0.4
-0.43
-0.48
-0.49
-0.45
-0.4
-0.34
-0.24
-0.17
-0.15
-0.15
-0.11
-0.1
-0.11
-0.1
-0.1
-0.11
-0.13
-0.11
-0.11
-0.14
-0.15
-0.12
-0.15
-0.17
-0.14
-0.15
-0.17
-0.19
-0.16
-0.18
-0.19
-0.17
-0.18
-0.2
-0.21
-0.19
-0.2
-0.23
-0.2
-0.21
-0.21
-0.22
-0.19
-0.2
-0.22
-0.2
-0.19
-0.19
-0.21
-0.19
-0.18
-0.21
-0.19
-0.17
-0.14
-0.11
-0.07
-0.03
0.02
0.24
0.2
0.21
0.15
0.08
0.08
0.03
-0.1
-0.15
-0.19
-0.18
-0.15
-0.28
-0.11
1.3
4.51
5.11
4.61
0.55
-0.45
-0.36
-0.26
-0.3
-0.33
-0.34
-0.36
-0.33
-0.34
-0.35
-0.31
-0.3
-0.31
-0.31
-0.28
-0.29
-0.31
-0.28
-0.27
-0.29
-0.29
-0.26
-0.3
-0.33
-0.32
-0.36
-0.42
-0.45
-0.46
-0.48
-0.48
-0.39
-0.31
-0.24
-0.17
-0.07
-0.06
-0.06
-0.03
0
-0.04
-0.03
-0.02
-0.03
-0.05
-0.03
-0.03
-0.07
-0.07
-0.05
-0.08
-0.09
-0.08
-0.08
-0.1
-0.14
-0.11
-0.12
-0.13
-0.12
-0.11
-0.12
-0.14
-0.11
-0.12
-0.14
-0.12
-0.12
-0.13
-0.15
-0.12
-0.13
-0.15
-0.16
-0.13
-0.14
-0.16
-0.14
-0.13
-0.14
-0.15
-0.06
-0.08
-0.06
0.02
0.22
0.2
0.19
0.2
0.08
0.05
0.06
-0.06
-0.17
-0.19
-0.15
-0.15
-0.25
-0.14
1.24
4.39
5.11
4.78
0.67
-0.45
-0.37
-0.17
-0.27
-0.32
-0.29
-0.3
-0.31
-0.31
-0.28
-0.29
-0.3
-0.27
-0.26
-0.27
-0.28
-0.24
-0.25
-0.26
-0.24
-0.24
-0.26
-0.29
-0.28
-0.31
-0.36
-0.38
-0.4
-0.45
-0.47
-0.41
-0.38
-0.32
-0.22
-0.13
-0.08
-0.08
-0.02
-0.02
-0.03
-0.03
-0.01
-0.03
-0.04
-0.02
-0.03
-0.06
-0.08
-0.05
-0.08
-0.1
-0.09
-0.09
-0.1
-0.13
-0.08
-0.1
-0.12
-0.11
-0.11
-0.12
-0.14
-0.09
-0.1
-0.13
-0.15
-0.13
-0.15
-0.16
-0.13
-0.13
-0.15
-0.15
-0.14
-0.14
-0.17
-0.14
-0.13
-0.15
-0.14
-0.11
-0.06
-0.07
-0.01
0.03
0.15
0.23
0.24
0.25
0.1
0.08
0.08
-0.02
-0.17
-0.17
-0.17
-0.16
-0.18
-0.34
0.62
3.04
5.11
5.11
2.8
-0.67
-0.39
-0.24
-0.28
-0.3
-0.33
-0.33
-0.34
-0.33
-0.32
-0.32
-0.29
-0.3
-0.29
-0.29
-0.26
-0.25
-0.27
-0.25
-0.25
-0.27
-0.28
-0.25
-0.27
-0.3
-0.3
-0.34
-0.38
-0.42
-0.39
-0.41
-0.38
-0.31
-0.24
-0.18
-0.12
-0.07
-0.04
-0.1
-0.09
-0.06
-0.08
-0.1
-0.09
-0.08
-0.12
-0.14
-0.13
-0.12
-0.16
-0.14
-0.16
-0.16
-0.19
-0.16
-0.17
-0.18
-0.16
-0.15
-0.17
-0.16
-0.17
-0.17
-0.19
-0.2
-0.17
-0.2
-0.22
-0.17
-0.16
-0.2
-0.22
-0.19
-0.2
-0.21
-0.19
-0.2
-0.2
-0.2
-0.13
-0.14
-0.11
0.02
0.2
0.13
0.14
0.08
-0.01
-0.05
-0.07
-0.21
-0.26
-0.28
-0.24
-0.22
-0.37
0.3
2.1
5.11
5.11
3.95
-0.39
-0.48
-0.43
-0.28
-0.35
-0.38
-0.36
-0.35
-0.36
-0.37
-0.32
-0.33
-0.33
-0.3
-0.29
-0.31
-0.32
-0.29
-0.3
-0.33
-0.32
-0.32
-0.34
-0.35
-0.36
-0.38
-0.42
-0.44
-0.47
-0.53
-0.52
-0.47
-0.42
-0.36
-0.25
-0.2
-0.17
-0.15
-0.12
-0.12
-0.13
-0.11
-0.11
-0.13
-0.14
-0.11
-0.13
-0.15
-0.14
-0.14
-0.16
-0.16
-0.14
-0.14
-0.16
-0.15
-0.14
-0.15
-0.16
-0.13
-0.14
-0.17
-0.17
-0.16
-0.17
-0.19
-0.15
-0.16
-0.18
-0.18
-0.17
-0.18
-0.21
-0.17
-0.18
-0.22
-0.2
-0.19
-0.2
-0.22
-0.16
-0.11
-0.13
-0.07
-0.01
0.19
0.14
0.2
0.18
0.04
0.03
0.03
-0.1
-0.21
-0.19
-0.19
-0.19
-0.29
-0.16
1.2
4.34
5.11
4.77
0.78
-0.54
-0.4
-0.22
-0.33
-0.35
-0.35
-0.36
-0.38
-0.33
-0.34
-0.35
-0.33
-0.32
-0.32
-0.34
-0.3
-0.3
-0.32
-0.32
-0.31
-0.3
-0.32
-0.31
-0.32
-0.37
-0.4
-0.41
-0.47
-0.51
-0.48
-0.46
-0.42
-0.36
-0.26
-0.18
-0.14
-0.08
-0.05
-0.07
-0.06
-0.05
-0.04
-0.07
-0.05
-0.07
-0.07
-0.1
-0.06
-0.07
-0.1
-0.09
-0.1
-0.11
-0.15
-0.11
-0.13
-0.15
-0.15
-0.14
-0.16
-0.18
-0.15
-0.16
-0.18
-0.16
-0.15
-0.16
-0.19
-0.16
-0.17
-0.18
-0.19
-0.16
-0.18
-0.18
-0.17
-0.17
-0.18
-0.19
-0.15
-0.09
-0.1
-0.05
-0.01
0.15
0.2
0.21
0.22
0.1
0.06
0.07
-0.04
-0.18
-0.16
-0.16
-0.17
-0.17
-0.32
0.66
3.27
5.11
5.11
2.45
-0.67
-0.38
-0.2
-0.27
-0.3
-0.3
-0.32
-0.35
-0.31
-0.31
-0.33
-0.28
-0.28
-0.28
-0.3
-0.24
-0.27
-0.26
-0.25
-0.24
-0.26
-0.27
-0.25
-0.26
-0.3
-0.32
-0.34
-0.39
-0.43
-0.42
-0.4
-0.38
-0.31
-0.22
-0.15
-0.11
-0.04
-0.02
-0.03
-0.04
-0.02
-0.04
-0.06
-0.03
-0.04
-0.06
-0.07
-0.04
-0.06
-0.09
-0.07
-0.08
-0.11
-0.13
-0.09
-0.11
-0.12
-0.11
-0.12
-0.14
-0.16
-0.13
-0.12
-0.16
-0.14
-0.13
-0.15
-0.16
-0.14
-0.13
-0.17
-0.15
-0.14
-0.16
-0.19
-0.14
-0.16
-0.16
-0.11
-0.07
-0.05
-0.03
0.16
0.23
0.2
0.2
0.11
0.05
0.03
-0.03
-0.14
-0.2
-0.21
-0.16
-0.16
-0.34
0.7
3.27
5.11
5.11
2.42
-0.63
-0.41
-0.18
-0.26
-0.31
-0.34
-0.32
-0.33
-0.34
-0.32
-0.29
-0.32
-0.33
-0.28
-0.28
-0.29
-0.27
-0.27
-0.29
-0.3
-0.26
-0.27
-0.28
-0.3
-0.3
-0.34
-0.38
-0.36
-0.39
-0.43
-0.4
-0.34
-0.29
-0.24
-0.12
-0.08
-0.09
-0.04
-0.04
-0.08
-0.09
-0.08
-0.06
-0.09
-0.09
-0.08
-0.11
-0.14
-0.14
-0.14
-0.16
-0.17
-0.14
-0.17
-0.18
-0.14
-0.16
-0.18
-0.2
-0.18
-0.2
-0.2
-0.17
-0.17
-0.2
-0.19
-0.18
-0.19
-0.22
-0.19
-0.2
-0.21
-0.22
-0.22
-0.22
-0.24
-0.21
-0.21
-0.17
-0.17
-0.11
-0.08
0.05
0.17
0.16
0.15
0.02
0
-0.04
-0.12
-0.22
-0.24
-0.27
-0.26
-0.26
-0.34
0.76
3.3
5.11
5.11
2.42
-0.71
-0.53
-0.34
-0.36
-0.36
-0.39
-0.42
-0.39
-0.4
-0.4
-0.39
-0.35
-0.36
-0.35
-0.32
-0.32
-0.33
-0.31
-0.29
-0.29
-0.29
-0.26
-0.25
-0.29
-0.3
-0.29
-0.33
-0.37
-0.38
-0.39
-0.4
-0.39
-0.3
-0.26
-0.22
-0.16
-0.12
-0.14
-0.15
-0.13
-0.13
-0.15
-0.16
-0.14
-0.16
-0.19
-0.16
-0.18
-0.21
-0.19
-0.16
-0.18
-0.18
-0.17
-0.17
-0.18
-0.19
-0.17
-0.18
-0.2
-0.17
-0.18
-0.18
-0.19
-0.17
-0.17
-0.19
-0.18
-0.18
-0.19
-0.2
-0.16
-0.17
-0.19
-0.19
-0.18
-0.19
-0.18
-0.1
-0.11
-0.09
-0.05
0.18
0.14
0.15
0.15
0.03
0
-0.03
-0.14
-0.24
-0.27
-0.24
-0.21
-0.29
-0.34
0.81
3.8
5.11
5.11
1.51
-0.63
-0.48
-0.25
-0.32
-0.37
-0.38
-0.36
-0.37
-0.38
-0.35
-0.33
-0.34
-0.34
-0.31
-0.32
-0.33
-0.28
-0.3
-0.29
-0.29
-0.26
-0.3
-0.31
-0.31
-0.32
-0.36
-0.4
-0.41
-0.45
-0.48
-0.44
-0.39
-0.35
-0.28
-0.18
-0.13
-0.09
-0.08
-0.05
-0.05
-0.08
-0.05
-0.06
-0.06
-0.08
-0.06
-0.08
-0.11
-0.08
-0.08
-0.1
-0.12
-0.1
-0.13
-0.15
-0.14
-0.14
-0.16
-0.18
-0.16
-0.16
-0.18
-0.16
-0.15
-0.17
-0.19
-0.16
-0.17
-0.19
-0.18
-0.16
-0.18
-0.19
-0.17
-0.15
-0.19
-0.18
-0.15
-0.11
-0.12
-0.05
-0.02
0.11
0.22
0.2
0.21
0.09
0.04
0.06
-0.03
-0.19
-0.19
-0.18
-0.19
-0.17
-0.35
0.32
2.34
5.11
5.11
3.36
-0.59
-0.37
-0.26
-0.27
-0.31
-0.32
-0.35
-0.35
-0.32
-0.33
-0.34
-0.31
-0.3
-0.31
-0.32
-0.28
-0.29
-0.3
-0.28
-0.26
-0.28
-0.3
-0.28
-0.3
-0.33
-0.35
-0.37
-0.41
-0.46
-0.45
-0.46
-0.44
-0.38
-0.28
-0.21
-0.15
-0.08
-0.06
-0.08
-0.07
-0.06
-0.08
-0.1
-0.07
-0.07
-0.09
-0.09
-0.1
-0.12
-0.15
-0.11
-0.1
-0.14
-0.14
-0.11
-0.14
-0.16
-0.14
-0.16
-0.16
-0.18
-0.13
-0.16
-0.17
-0.16
-0.16
-0.17
-0.19
-0.17
-0.17
-0.2
-0.17
-0.17
-0.19
-0.2
-0.18
-0.17
-0.13
-0.11
-0.05
-0.03
0.2
0.23
0.23
0.15
0.07
0.06
0
-0.16
-0.19
-0.21
-0.21
-0.2
-0.25
-0.15
1.16
4.34
5.11
4.69
0.65
-0.48
-0.41
-0.26
-0.33
-0.36
-0.38
-0.39
-0.38
-0.36
-0.38
-0.37
-0.36
-0.38
-0.39
-0.35
-0.35
-0.37
-0.36
-0.34
-0.34
-0.34
-0.33
-0.34
-0.37
-0.38
-0.36
-0.42
-0.45
-0.47
-0.48
-0.49
-0.44
-0.35
-0.25
-0.2
-0.15
-0.1
-0.1
-0.13
-0.09
-0.11
-0.12
-0.14
-0.1
-0.12
-0.14
-0.12
-0.14
-0.16
-0.2
-0.18
-0.18
-0.19
-0.19
-0.18
-0.22
-0.22
-0.2
-0.2
-0.22
-0.23
-0.21
-0.2
-0.23
-0.22
-0.24
-0.24
-0.24
-0.24
-0.23
-0.26
-0.24
-0.23
-0.25
-0.28
-0.22
-0.25
-0.22
-0.16
-0.16
-0.16
0.01
0.14
0.1
0.12
-0.02
-0.06
-0.1
-0.21
-0.29
-0.32
-0.35
-0.34
-0.31
-0.46
0.32
2.26
5.11
5.11
3.64
-0.59
-0.57
-0.53
-0.4
-0.46
-0.46
-0.49
-0.48
-0.43
-0.47
-0.48
-0.43
-0.43
-0.43
-0.41
-0.4
-0.43
-0.39
-0.34
-0.35
-0.34
-0.34
-0.31
-0.32
-0.34
-0.31
-0.31
-0.36
-0.37
-0.38
-0.41
-0.4
-0.33
-0.3
-0.28
-0.25
-0.22
-0.23
-0.24
-0.24
-0.23
-0.28
-0.29
-0.27
-0.28
-0.32
-0.3
-0.29
-0.31
-0.31
-0.28
-0.28
-0.28
-0.27
-0.27
-0.28
-0.3
-0.27
-0.28
-0.28
-0.28
-0.25
-0.27
-0.3
-0.27
-0.28
-0.3
-0.31
-0.29
-0.3
-0.31
-0.28
-0.27
-0.27
-0.23
-0.19
-0.16
-0.1
0.12
0.09
0.1
-0.02
-0.04
-0.05
-0.14
-0.28
-0.3
-0.32
-0.32
-0.29
-0.46
0.02
1.72
5.02
5.11
4.1
-0.25
-0.47
-0.46
-0.35
-0.39
-0.41
-0.44
-0.42
-0.42
-0.43
-0.44
-0.39
-0.39
-0.4
-0.4
-0.37
-0.39
-0.39
-0.34
-0.35
-0.34
-0.32
-0.32
-0.33
-0.36
-0.34
-0.38
-0.41
-0.43
-0.43
-0.45
-0.43
-0.35
-0.26
-0.22
-0.16
-0.09
-0.09
-0.11
-0.06
-0.08
-0.11
-0.1
-0.09
-0.11
-0.14
-0.1
-0.12
-0.13
-0.16
-0.13
-0.14
-0.17
-0.15
-0.15
-0.18
-0.2
-0.17
-0.19
-0.19
-0.17
-0.16
-0.18
-0.2
-0.16
-0.15
-0.18
-0.17
-0.15
-0.18
-0.19
-0.16
-0.16
-0.18
-0.17
-0.15
-0.11
-0.12
-0.04
-0.02
0.19
0.23
0.25
0.16
0.05
0.05
0
-0.15
-0.22
-0.21
-0.21
-0.2
-0.24
-0.18
1.07
4.19
5.11
5.02
1.11
-0.57
-0.4
-0.23
-0.32
-0.33
-0.33
-0.34
-0.33
-0.31
-0.32
-0.33
-0.29
-0.28
-0.29
-0.28
-0.27
-0.27
-0.29
-0.25
-0.25
-0.27
-0.29
-0.26
-0.29
-0.31
-0.32
-0.34
-0.39
-0.42
-0.39
-0.38
-0.35
-0.25
-0.18
-0.13
-0.1
-0.03
-0.02
-0.05
-0.03
-0.02
-0.05
-0.07
-0.04
-0.06
-0.09
-0.09
-0.08
-0.1
-0.12
-0.1
-0.11
-0.13
-0.13
-0.11
-0.14
-0.17
-0.14
-0.14
-0.15
-0.17
-0.13
-0.14
-0.16
-0.15
-0.15
-0.17
-0.18
-0.13
-0.15
-0.17
-0.17
-0.15
-0.15
-0.15
-0.08
-0.06
-0.07
0.16
0.26
0.23
0.17
0.08
0.08
0.01
-0.13
-0.19
-0.2
-0.22
-0.19
-0.21
-0.32
0.75
3.63
5.11
5.11
1.86
-0.65
-0.44
-0.26
-0.29
-0.33
-0.35
-0.36
-0.34
-0.34
-0.34
-0.31
-0.31
-0.32
-0.32
-0.29
-0.28
-0.29
-0.28
-0.26
-0.27
-0.29
-0.25
-0.27
-0.3
-0.31
-0.3
-0.35
-0.38
-0.38
-0.38
-0.39
-0.37
-0.27
-0.21
-0.16
-0.08
-0.04
-0.04
-0.05
-0.03
-0.03
-0.06
-0.07
-0.06
-0.09
-0.12
-0.1
-0.09
-0.14
-0.13
-0.12
-0.14
-0.17
-0.15
-0.14
-0.16
-0.17
-0.15
-0.15
-0.17
-0.15
-0.16
-0.18
-0.16
-0.16
-0.15
-0.18
-0.17
-0.15
-0.16
-0.18
-0.15
-0.16
-0.18
-0.18
-0.15
-0.16
-0.14
-0.1
-0.06
-0.06
0.16
0.22
0.2
0.14
0.05
0.04
-0.03
-0.16
-0.21
-0.25
-0.25
-0.24
-0.22
-0.3
0.81
3.57
5.11
5.11
1.89
-0.66
-0.49
-0.27
-0.34
-0.36
-0.39
-0.41
-0.38
-0.36
-0.39
-0.36
-0.36
-0.36
-0.36
-0.33
-0.31
-0.32
-0.31
-0.3
-0.32
-0.31
-0.28
-0.32
-0.34
-0.32
-0.32
-0.36
-0.38
-0.41
-0.4
-0.43
-0.4
-0.31
-0.25
-0.22
-0.16
-0.15
-0.17
-0.18
-0.15
-0.15
-0.18
-0.18
-0.18
-0.21
-0.23
-0.2
-0.21
-0.23
-0.24
-0.23
-0.25
-0.24
-0.21
-0.23
-0.21
-0.23
-0.2
-0.24
-0.26
-0.22
-0.23
-0.25
-0.26
-0.23
-0.25
-0.3
-0.26
-0.25
-0.27
-0.3
-0.27
-0.24
-0.21
-0.17
-0.14
-0.03
0.09
0.09
0.14
-0.01
-0.02
-0.08
-0.19
-0.33
-0.28
-0.3
-0.3
-0.3
-0.4
0.62
2.9
5.11
5.11
2.85
-0.81
-0.6
-0.43
-0.41
-0.41
-0.44
-0.45
-0.44
-0.41
-0.42
-0.42
-0.38
-0.35
-0.36
-0.37
-0.33
-0.32
-0.34
-0.28
-0.27
-0.28
-0.3
-0.27
-0.29
-0.31
-0.3
-0.34
-0.38
-0.43
-0.4
-0.4
-0.38
-0.32
-0.26
-0.2
-0.19
-0.13
-0.12
-0.14
-0.13
-0.13
-0.15
-0.17
-0.13
-0.14
-0.18
-0.17
-0.19
-0.19
-0.21
-0.18
-0.19
-0.21
-0.21
-0.19
-0.2
-0.22
-0.18
-0.17
-0.19
-0.19
-0.18
-0.18
-0.21
-0.18
-0.2
-0.21
-0.21
-0.18
-0.19
-0.21
-0.21
-0.2
-0.21
-0.21
-0.14
-0.1
-0.11
-0.06
0.11
0.24
0.18
0.25
0.13
0.08
0.06
-0.03
-0.18
-0.19
-0.17
-0.16
-0.18
-0.41
0.44
2.7
5.11
5.11
3.22
-0.67
-0.43
-0.24
-0.26
-0.33
-0.32
-0.3
-0.33
-0.34
-0.31
-0.3
-0.31
-0.3
-0.28
-0.28
-0.3
-0.26
-0.25
-0.27
-0.26
-0.25
-0.27
-0.29
-0.27
-0.28
-0.32
-0.34
-0.35
-0.4
-0.43
-0.37
-0.34
-0.28
-0.21
-0.13
-0.07
-0.05
0
0
-0.01
-0.04
0
-0.02
-0.03
-0.02
-0.02
-0.03
-0.07
-0.04
-0.06
-0.08
-0.09
-0.08
-0.11
-0.13
-0.1
-0.11
-0.15
-0.13
-0.12
-0.15
-0.15
-0.13
-0.12
-0.14
-0.16
-0.12
-0.15
-0.16
-0.13
-0.13
-0.14
-0.15
-0.13
-0.12
-0.09
-0.06
-0.02
0.13
0.27
0.26
0.27
0.12
0.1
0.1
-0.03
-0.16
-0.15
-0.16
-0.17
-0.13
-0.32
0.42
2.66
5.11
5.11
3.27
-0.64
-0.37
-0.24
-0.27
-0.3
-0.31
-0.34
-0.32
-0.31
-0.31
-0.33
-0.3
-0.29
-0.29
-0.3
-0.26
-0.28
-0.29
-0.25
-0.25
-0.27
-0.27
-0.26
-0.28
-0.3
-0.3
-0.32
-0.37
-0.39
-0.38
-0.36
-0.34
-0.24
-0.17
-0.12
-0.09
-0.03
-0.03
-0.06
-0.03
-0.04
-0.05
-0.08
-0.03
-0.06
-0.08
-0.08
-0.08
-0.11
-0.12
-0.1
-0.11
-0.14
-0.14
-0.13
-0.15
-0.18
-0.16
-0.16
-0.19
-0.17
-0.18
-0.2
-0.23
-0.2
-0.22
-0.23
-0.22
-0.2
-0.22
-0.25
-0.21
-0.22
-0.22
-0.21
-0.21
-0.21
-0.23
-0.18
-0.14
-0.09
-0.09
-0.03
0.04
0.22
0.2
0.22
0.14
0.05
0.06
0.02
-0.15
-0.17
-0.16
-0.17
-0.15
-0.29
0.3
2.33
5.11
5.11
3.59
-0.54
-0.36
-0.27
-0.27
-0.32
-0.33
-0.36
-0.36
-0.34
-0.34
-0.33
-0.29
-0.28
-0.31
-0.31
-0.26
-0.29
-0.28
-0.27
-0.29
-0.27
-0.31
-0.26
-0.31
-0.32
-0.33
-0.37
-0.41
-0.44
-0.46
-0.42
-0.41
-0.33
-0.25
-0.19
-0.16
-0.1
-0.1
-0.1
-0.08
-0.06
-0.09
-0.11
-0.06
-0.09
-0.12
-0.11
-0.12
-0.14
-0.16
-0.14
-0.15
-0.19
-0.19
-0.17
-0.18
-0.2
-0.18
-0.16
-0.2
-0.23
-0.21
-0.21
-0.24
-0.23
-0.22
-0.22
-0.25
-0.22
-0.23
-0.25
-0.27
-0.26
-0.25
-0.28
-0.23
-0.18
-0.21
-0.14
-0.08
0.05
0.1
0.1
0.13
0
-0.06
-0.06
-0.14
-0.29
-0.3
-0.29
-0.28
-0.31
-0.36
0.74
3.21
5.11
5.11
2.1
-0.78
-0.61
-0.35
-0.4
-0.43
-0.42
-0.41
-0.44
-0.4
-0.38
-0.38
-0.38
-0.33
-0.34
-0.34
-0.3
-0.29
-0.28
-0.29
-0.26
-0.27
-0.28
-0.28
-0.26
-0.3
-0.33
-0.32
-0.36
-0.41
-0.43
-0.4
-0.37
-0.33
-0.24
-0.17
-0.14
-0.12
-0.08
-0.08
-0.11
-0.09
-0.08
-0.12
-0.14
-0.1
-0.11
-0.14
-0.14
-0.14
-0.16
-0.17
-0.13
-0.14
-0.15
-0.15
-0.13
-0.13
-0.16
-0.13
-0.12
-0.14
-0.15
-0.12
-0.14
-0.15
-0.12
-0.13
-0.16
-0.16
-0.14
-0.15
-0.16
-0.15
-0.15
-0.16
-0.15
-0.06
-0.07
-0.04
0
0.25
0.23
0.23
0.23
0.11
0.07
0.04
-0.08
-0.18
-0.2
-0.16
-0.16
-0.21
-0.29
0.94
3.95
5.11
5.11
1.47
-0.66
-0.46
-0.22
-0.31
-0.37
-0.37
-0.35
-0.38
-0.37
-0.35
-0.33
-0.34
-0.34
-0.3
-0.31
-0.32
-0.28
-0.27
-0.29
-0.3
-0.27
-0.28
-0.31
-0.3
-0.32
-0.37
-0.41
-0.42
-0.45
-0.47
-0.45
-0.38
-0.33
-0.27
-0.16
-0.11
-0.11
-0.09
-0.08
-0.09
-0.11
-0.1
-0.1
-0.12
-0.12
-0.1
-0.14
-0.15
-0.13
-0.13
-0.17
-0.18
-0.17
-0.18
-0.21
-0.17
-0.17
-0.2
-0.22
-0.19
-0.19
-0.21
-0.18
-0.18
-0.19
-0.21
-0.18
-0.18
-0.2
-0.2
-0.18
-0.2
-0.22
-0.18
-0.13
-0.14
-0.09
-0.05
0.04
0.2
0.17
0.22
0.07
0
0.01
-0.06
-0.22
-0.23
-0.23
-0.22
-0.23
-0.4
0.3
2.35
5.11
5.11
3.56
-0.61
-0.42
-0.32
-0.32
-0.37
-0.36
-0.39
-0.4
-0.36
-0.35
-0.36
-0.35
-0.33
-0.34
-0.34
-0.31
-0.29
-0.29
-0.3
-0.29
-0.31
-0.32
-0.29
-0.3
-0.32
-0.36
-0.35
-0.41
-0.44
-0.44
-0.42
-0.41
-0.34
-0.26
-0.19
-0.16
-0.11
-0.09
-0.1
-0.11
-0.1
-0.09
-0.12
-0.1
-0.1
-0.14
-0.16
-0.13
-0.14
-0.17
-0.16
-0.14
-0.18
-0.18
-0.14
-0.17
-0.17
-0.18
-0.15
-0.18
-0.18
-0.15
-0.16
-0.19
-0.2
-0.17
-0.17
-0.21
-0.18
-0.19
-0.21
-0.23
-0.19
-0.21
-0.22
-0.17
-0.14
-0.14
-0.1
-0.01
0.19
0.09
0.17
0.1
0
-0.05
-0.05
-0.22
-0.27
-0.29
-0.26
-0.25
-0.34
-0.03
1.45
4.66
5.11
4.73
0.3
-0.52
-0.5
-0.27
-0.38
-0.41
-0.37
-0.39
-0.4
-0.37
-0.34
-0.35
-0.36
-0.33
-0.36
-0.3
-0.32
-0.31
-0.31
-0.3
-0.27
-0.25
-0.31
-0.28
-0.25
-0.28
-0.27
-0.28
-0.29
-0.36
-0.34
-0.29
-0.26
-0.25
-0.19
-0.12
-0.14
-0.16
-0.09
-0.11
-0.16
-0.15
-0.15
-0.17
-0.23
-0.18
0.09
-0.06
0.17
1.34
2
-0.1
-2.05
-3.18
-3.31
-3.1
-2.48
-1.82
-1.96
-1.83
-1.59
-1.09
-0.62
-0.06
0.38
0.47
0.61
0.73
0.81
0.94
1.07
1.21
1.31
1.46
1.68
1.86
2.13
2.45
2.92
3.32
3.61
3.9
4.07
4.14
4.15
3.94
3.41
2.9
2.3
1.68
1.07
0.58
0.26
0.03
-0.13
-0.2
-0.24
-0.28
-0.3
-0.29
-0.3
-0.33
-0.3
-0.3
-0.3
-0.3
-0.23
-0.23
0.3
2.48
5.11
5.11
4.27
-0.42
-0.46
-0.42
-0.33
-0.37
-0.39
-0.41
-0.39
-0.39
-0.39
-0.4
-0.36
-0.37
-0.38
-0.37
-0.37
-0.39
-0.41
-0.41
-0.45
-0.5
-0.53
-0.58
-0.66
-0.75
-0.79
-0.85
-0.91
-0.9
-0.83
-0.7
-0.6
-0.44
-0.35
-0.31
-0.28
-0.25
-0.25
-0.27
-0.24
-0.25
-0.27
-0.28
-0.27
-0.27
-0.29
-0.25
-0.26
-0.28
-0.3
-0.27
-0.28
-0.31
-0.3
-0.29
-0.3
-0.26
-0.23
-0.19
-0.17
-0.01
0.11
0.06
0.05
-0.06
-0.09
-0.11
-0.2
-0.33
-0.37
-0.38
-0.34
-0.35
-0.7
-0.12
1.76
4.96
5.11
3.59
-0.57
-0.56
-0.44
-0.42
-0.48
-0.52
-0.49
-0.5
-0.51
-0.51
-0.48
-0.5
-0.52
-0.48
-0.47
-0.5
-0.49
-0.47
-0.49
-0.52
-0.5
-0.55
-0.58
-0.63
-0.65
-0.71
-0.78
-0.81
-0.83
-0.84
-0.79
-0.68
-0.57
-0.46
-0.36
-0.28
-0.25
-0.24
-0.18
-0.19
-0.2
-0.19
-0.17
-0.19
-0.22
-0.18
-0.18
-0.2
-0.21
-0.2
-0.15
-0.08
-0.09
0.06
0.23
1.47
1.59
-0.2
-2.67
-3.26
-3.26
-2.95
-2.11
-1.8
-1.63
-1.92
-1.75
-1.61
-1.06
-0.67
-0.01
0.37
0.54
0.76
0.91
1.06
1.34
1.69
1.75
1.94
2.02
2.13
2.27
2.43
2.54
2.73
3.01
3.31
3.59
3.73
3.74
3.59
3.27
2.74
2.22
1.64
1.09
0.63
0.31
0.08
-0.11
-0.21
-0.24
-0.28
-0.31
-0.31
-0.31
-0.33
-0.36
-0.33
-0.33
-0.37
-0.36
-0.37
-0.39
-0.41
-0.38
-0.4
-0.43
-0.43
-0.42
-0.44
-0.45
-0.41
-0.42
-0.44
-0.46
-0.42
-0.43
-0.44
-0.43
-0.42
-0.43
-0.45
-0.42
-0.4
-0.42
-0.42
-0.38
-0.42
-0.44
-0.41
-0.39
-0.41
-0.4
-0.38
-0.38
-0.4
-0.37
-0.37
-0.4
-0.42
-0.39
-0.39
-0.41
-0.37
-0.36
-0.4
-0.39
-0.36
-0.36
-0.38
-0.35
-0.35
-0.36
-0.38
-0.35
-0.36
-0.37
-0.37
-0.35
-0.35
-0.33
-0.26
-0.24
-0.22
-0.01
0.05
0.05
-0.02
-0.09
-0.1
-0.16
-0.32
-0.36
-0.38
-0.38
-0.34
-0.54
-0.2
1.29
4.62
5.11
4.15
-0.15
-0.45
-0.5
-0.42
-0.5
-0.55
-0.57
-0.58
-0.54
-0.55
-0.58
-0.54
-0.53
-0.55
-0.54
-0.53
-0.52
-0.53
-0.51
-0.52
-0.54
-0.59
-0.58
-0.6
-0.69
-0.71
-0.76
-0.87
-0.96
-1
-1.06
-1.09
-1.07
-1
-0.92
-0.79
-0.62
-0.53
-0.42
-0.35
-0.28
-0.27
-0.27
-0.24
-0.23
-0.26
-0.25
-0.23
-0.21
-0.26
-0.25
-0.2
-0.21
-0.05
0.01
0.18
1.62
2.64
1.18
-1.78
-3.15
-3.03
-2.46
-1.87
-1.37
-1.39
-1.82
-1.78
-1.37
-0.96
-0.37
0.05
0.31
0.42
0.75
0.94
1.08
1.13
1.14
1.2
1.23
1.2
1.17
1.29
1.36
1.59
1.82
2.06
2.28
2.55
2.77
2.83
2.75
2.52
2.16
1.66
1.12
0.69
0.26
0
-0.15
-0.29
-0.37
-0.41
-0.41
-0.44
-0.43
-0.42
-0.42
-0.44
-0.44
-0.44
-0.46
-0.48
-0.45
-0.46
-0.5
-0.51
-0.48
-0.5
-0.52
-0.48
-0.5
-0.51
-0.51
-0.49
-0.5
-0.53
-0.5
-0.5
-0.52
-0.53
-0.49
-0.51
-0.51
-0.5
-0.48
-0.49
-0.5
-0.46
-0.47
-0.48
-0.47
-0.46
-0.48
-0.49
-0.45
-0.46
-0.47
-0.46
-0.44
-0.46
-0.47
-0.44
-0.44
-0.45
-0.44
-0.42
-0.43
-0.44
-0.4
-0.4
-0.41
-0.42
-0.38
-0.38
-0.33
-0.29
-0.27
-0.16
0
0
0.04
-0.09
-0.1
-0.14
-0.23
-0.38
-0.36
-0.37
-0.38
-0.37
-0.64
0.2
2.79
5.11
5.11
2.64
-0.78
-0.52
-0.34
-0.47
-0.47
-0.5
-0.54
-0.52
-0.51
-0.53
-0.53
-0.5
-0.49
-0.51
-0.48
-0.46
-0.47
-0.48
-0.45
-0.47
-0.49
-0.51
-0.53
-0.58
-0.65
-0.68
-0.76
-0.84
-0.94
-0.98
-1.03
-1.03
-0.94
-0.84
-0.72
-0.59
-0.44
-0.34
-0.28
-0.2
-0.15
-0.16
-0.16
-0.12
-0.12
-0.16
-0.14
-0.15
-0.18
-0.19
-0.18
-0.18
-0.22
-0.2
-0.21
-0.22
-0.25
-0.21
-0.24
-0.26
-0.26
-0.25
-0.26
-0.27
-0.24
-0.24
-0.26
-0.26
-0.21
-0.2
-0.16
-0.13
-0.11
0.07
0.19
0.17
0.18
0.03
0.03
-0.02
-0.14
-0.27
-0.25
-0.25
-0.26
-0.24
-0.48
0.27
2.35
5.11
5.11
3.15
-0.72
-0.46
-0.33
-0.35
-0.39
-0.39
-0.41
-0.42
-0.37
-0.38
-0.38
-0.36
-0.35
-0.35
-0.37
-0.32
-0.31
-0.31
-0.3
-0.29
-0.31
-0.33
-0.3
-0.31
-0.35
-0.38
-0.41
-0.48
-0.5
-0.49
-0.47
-0.43
-0.35
-0.25
-0.17
-0.14
-0.08
-0.06
-0.08
-0.1
-0.07
-0.09
-0.1
-0.09
-0.1
-0.12
-0.15
-0.11
-0.12
-0.14
-0.14
-0.14
-0.15
-0.18
-0.16
-0.15
-0.18
-0.2
-0.16
-0.19
-0.2
-0.18
-0.18
-0.2
-0.21
-0.18
-0.19
-0.21
-0.18
-0.18
-0.2
-0.21
-0.14
-0.1
-0.12
-0.07
0.05
0.22
0.16
0.23
0.1
0.03
0.02
-0.07
-0.21
-0.25
-0.2
-0.2
-0.19
-0.37
0.15
1.79
5.02
5.11
4.22
-0.2
-0.36
-0.29
-0.23
-0.32
-0.31
-0.31
-0.32
-0.32
-0.29
-0.29
-0.31
-0.28
-0.28
-0.27
-0.29
-0.26
-0.25
-0.26
-0.25
-0.24
-0.25
-0.29
-0.26
-0.29
-0.34
-0.4
-0.38
-0.42
-0.45
-0.43
-0.37
-0.31
-0.24
-0.13
-0.05
-0.05
0
-0.02
-0.03
-0.04
-0.02
-0.04
-0.06
-0.03
-0.03
-0.07
-0.1
-0.06
-0.06
-0.09
-0.07
-0.08
-0.12
-0.14
-0.13
-0.14
-0.15
-0.13
-0.14
-0.16
-0.16
-0.12
-0.14
-0.14
-0.16
-0.13
-0.16
-0.17
-0.13
-0.14
-0.12
-0.1
-0.03
0.07
0.21
0.24
0.25
0.12
0.06
0.05
-0.05
-0.21
-0.2
-0.2
-0.23
-0.21
-0.35
0.12
1.7
4.95
5.11
4.33
-0.13
-0.42
-0.41
-0.26
-0.34
-0.33
-0.35
-0.34
-0.32
-0.31
-0.34
-0.32
-0.3
-0.31
-0.34
-0.25
-0.26
-0.29
-0.24
-0.21
-0.23
-0.24
-0.2
-0.19
-0.24
-0.24
-0.24
-0.26
-0.32
-0.3
-0.3
-0.27
-0.23
-0.17
-0.14
-0.13
-0.1
-0.11
-0.15
-0.16
-0.13
-0.16
-0.19
-0.17
-0.18
-0.2
-0.21
-0.18
-0.2
-0.21
-0.19
-0.19
-0.21
-0.21
-0.19
-0.2
-0.21
-0.22
-0.21
-0.2
-0.24
-0.19
-0.2
-0.24
-0.23
-0.2
-0.22
-0.23
-0.2
-0.2
-0.23
-0.23
-0.19
-0.14
-0.16
-0.08
-0.03
0.15
0.1
0.15
0.11
-0.02
0.02
-0.03
-0.17
-0.25
-0.23
-0.23
-0.21
-0.25
-0.18
1.06
4.32
5.11
5
0.83
-0.45
-0.43
-0.21
-0.33
-0.3
-0.33
-0.34
-0.33
-0.3
-0.31
-0.31
-0.25
-0.26
-0.27
-0.26
-0.23
-0.23
-0.25
-0.22
-0.21
-0.24
-0.27
-0.25
-0.27
-0.31
-0.32
-0.33
-0.38
-0.4
-0.36
-0.33
-0.29
-0.21
-0.14
-0.08
-0.06
0
0
-0.03
-0.02
-0.02
-0.01
-0.05
-0.02
-0.02
-0.05
-0.06
-0.06
-0.07
-0.1
-0.07
-0.1
-0.11
-0.13
-0.11
-0.13
-0.16
-0.14
-0.13
-0.17
-0.17
-0.13
-0.14
-0.17
-0.15
-0.14
-0.17
-0.19
-0.16
-0.16
-0.18
-0.18
-0.17
-0.17
-0.16
-0.09
-0.08
-0.06
0.02
0.23
0.15
0.16
0.12
0.03
0.01
-0.05
-0.17
-0.23
-0.24
-0.2
-0.19
-0.31
-0.06
1.5
4.76
5.11
4.37
0.13
-0.47
-0.41
-0.25
-0.33
-0.36
-0.34
-0.35
-0.35
-0.36
-0.32
-0.33
-0.34
-0.33
-0.31
-0.32
-0.33
-0.29
-0.29
-0.29
-0.3
-0.27
-0.3
-0.3
-0.3
-0.31
-0.35
-0.39
-0.4
-0.41
-0.41
-0.35
-0.28
-0.22
-0.17
-0.09
-0.07
-0.09
-0.06
-0.06
-0.09
-0.1
-0.07
-0.07
-0.09
-0.09
-0.08
-0.12
-0.14
-0.11
-0.12
-0.14
-0.16
-0.15
-0.16
-0.2
-0.17
-0.18
-0.22
-0.2
-0.2
-0.2
-0.23
-0.18
-0.19
-0.22
-0.21
-0.2
-0.21
-0.21
-0.19
-0.2
-0.22
-0.23
-0.2
-0.22
-0.22
-0.21
-0.21
-0.22
-0.17
-0.14
-0.09
-0.08
0.06
0.18
0.13
0.13
0.04
0.01
-0.03
-0.11
-0.23
-0.26
-0.27
-0.22
-0.23
-0.45
0.37
2.59
5.11
5.11
3.12
-0.69
-0.45
-0.31
-0.32
-0.38
-0.41
-0.38
-0.38
-0.4
-0.41
-0.37
-0.37
-0.38
-0.36
-0.34
-0.36
-0.37
-0.33
-0.33
-0.34
-0.33
-0.33
-0.34
-0.38
-0.37
-0.4
-0.45
-0.49
-0.5
-0.51
-0.5
-0.41
-0.35
-0.3
-0.24
-0.16
-0.15
-0.15
-0.12
-0.12
-0.13
-0.15
-0.12
-0.14
-0.17
-0.14
-0.13
-0.18
-0.19
-0.16
-0.17
-0.21
-0.21
-0.2
-0.23
-0.26
-0.24
-0.25
-0.26
-0.26
-0.25
-0.27
-0.27
-0.23
-0.22
-0.25
-0.24
-0.23
-0.24
-0.27
-0.24
-0.24
-0.25
-0.27
-0.25
-0.24
-0.28
-0.24
-0.25
-0.25
-0.27
-0.23
-0.22
-0.2
-0.16
-0.12
-0.12
0.04
0.16
0.12
0.11
0.01
-0.02
-0.07
-0.17
-0.24
-0.25
-0.28
-0.26
-0.26
-0.42
0.37
2.53
5.11
5.11
3.23
-0.7
-0.45
-0.35
-0.34
-0.39
-0.41
-0.43
-0.38
-0.39
-0.39
-0.39
-0.35
-0.36
-0.36
-0.35
-0.34
-0.35
-0.35
-0.33
-0.33
-0.32
-0.3
-0.29
-0.32
-0.34
-0.32
-0.32
-0.39
-0.4
-0.41
-0.41
-0.41
-0.3
-0.26
-0.22
-0.15
-0.14
-0.14
-0.17
-0.14
-0.16
-0.17
-0.16
-0.18
-0.2
-0.21
-0.19
-0.19
-0.22
-0.26
-0.2
-0.22
-0.25
-0.22
-0.26
-0.24
-0.29
-0.2
-0.23
-0.23
-0.24
-0.24
-0.25
-0.28
-0.23
-0.24
-0.28
-0.29
-0.25
-0.27
-0.29
-0.28
-0.27
-0.29
-0.32
-0.3
-0.3
-0.3
-0.23
-0.22
-0.19
-0.18
0.02
0.05
0.05
0.03
-0.06
-0.11
-0.14
-0.21
-0.32
-0.34
-0.36
-0.31
-0.33
-0.48
0.45
2.65
5.11
5.11
2.93
-0.76
-0.57
-0.37
-0.36
-0.4
-0.43
-0.39
-0.4
-0.4
-0.37
-0.34
-0.35
-0.36
-0.32
-0.32
-0.32
-0.32
-0.28
-0.28
-0.3
-0.27
-0.28
-0.3
-0.31
-0.28
-0.31
-0.35
-0.36
-0.37
-0.39
-0.4
-0.32
-0.27
-0.22
-0.14
-0.08
-0.08
-0.07
-0.04
-0.05
-0.07
-0.06
-0.04
-0.05
-0.08
-0.05
-0.06
-0.1
-0.09
-0.07
-0.09
-0.11
-0.08
-0.09
-0.13
-0.13
-0.11
-0.12
-0.15
-0.11
-0.12
-0.15
-0.14
-0.13
-0.14
-0.16
-0.13
-0.13
-0.15
-0.15
-0.14
-0.14
-0.17
-0.13
-0.15
-0.15
-0.16
-0.13
-0.13
-0.15
-0.11
-0.03
-0.06
0
0.06
0.26
0.23
0.25
0.25
0.12
0.09
0.1
-0.02
-0.13
-0.15
-0.13
-0.11
-0.17
-0.31
0.73
3.5
5.11
5.11
1.95
-0.6
-0.34
-0.14
-0.23
-0.29
-0.25
-0.25
-0.27
-0.27
-0.26
-0.26
-0.27
-0.23
-0.22
-0.25
-0.23
-0.21
-0.23
-0.24
-0.21
-0.2
-0.22
-0.23
-0.22
-0.25
-0.28
-0.29
-0.32
-0.35
-0.37
-0.31
-0.26
-0.2
-0.1
-0.03
0
0.02
0.04
0.05
0.01
0.03
0.03
0.01
0
0.03
0.01
-0.01
-0.02
-0.01
-0.03
-0.05
-0.02
-0.04
-0.07
-0.08
-0.07
-0.09
-0.1
-0.09
-0.09
-0.11
-0.1
-0.08
-0.08
-0.1
-0.08
-0.08
-0.1
-0.11
-0.08
-0.08
-0.1
-0.1
-0.08
-0.1
-0.12
-0.09
-0.08
-0.11
-0.11
-0.09
-0.1
-0.12
-0.09
-0.08
-0.1
-0.06
-0.01
0
0.02
0.14
0.33
0.23
0.25
0.19
0.1
0.08
0.06
-0.1
-0.16
-0.18
-0.13
-0.13
-0.33
0.13
1.81
4.91
5.11
4.25
0.03
-0.35
-0.29
-0.19
-0.28
-0.31
-0.28
-0.29
-0.3
-0.32
-0.3
-0.3
-0.31
-0.28
-0.28
-0.29
-0.31
-0.27
-0.27
-0.29
-0.26
-0.26
-0.28
-0.32
-0.29
-0.32
-0.36
-0.38
-0.38
-0.42
-0.43
-0.37
-0.32
-0.27
-0.17
-0.09
-0.07
-0.04
0
-0.01
-0.02
-0.03
0
-0.02
-0.03
-0.02
-0.03
-0.05
-0.07
-0.03
-0.06
-0.08
-0.09
-0.09
-0.1
-0.14
-0.1
-0.1
-0.13
-0.14
-0.12
-0.14
-0.14
-0.14
-0.12
-0.15
-0.16
-0.14
-0.15
-0.17
-0.16
-0.16
-0.17
-0.17
-0.16
-0.17
-0.19
-0.17
-0.16
-0.18
-0.19
-0.17
-0.15
-0.18
-0.14
-0.09
-0.08
-0.06
0.02
0.23
0.14
0.16
0.13
0.04
0
-0.03
-0.18
-0.22
-0.24
-0.17
-0.18
-0.36
0.07
1.72
4.92
5.11
4.2
0
-0.41
-0.41
-0.24
-0.35
-0.38
-0.38
-0.38
-0.37
-0.38
-0.37
-0.34
-0.36
-0.35
-0.33
-0.33
-0.35
-0.32
-0.31
-0.32
-0.34
-0.32
-0.32
-0.34
-0.33
-0.35
-0.38
-0.44
-0.42
-0.48
-0.49
-0.46
-0.4
-0.36
-0.29
-0.21
-0.14
-0.16
-0.11
-0.12
-0.14
-0.15
-0.14
-0.15
-0.16
-0.17
-0.15
-0.17
-0.22
-0.17
-0.18
-0.22
-0.21
-0.19
-0.23
-0.26
-0.2
-0.21
-0.23
-0.24
-0.22
-0.24
-0.26
-0.26
-0.24
-0.27
-0.27
-0.26
-0.26
-0.27
-0.25
-0.23
-0.27
-0.28
-0.24
-0.26
-0.28
-0.22
-0.21
-0.18
-0.19
-0.13
-0.05
0.12
0.08
0.13
0.06
-0.06
-0.05
-0.11
-0.2
-0.29
-0.28
-0.29
-0.3
-0.32
-0.22
1.03
4.05
5.11
4.94
0.96
-0.64
-0.59
-0.32
-0.43
-0.41
-0.43
-0.45
-0.44
-0.42
-0.43
-0.44
-0.39
-0.39
-0.4
-0.39
-0.35
-0.36
-0.36
-0.31
-0.32
-0.32
-0.31
-0.29
-0.3
-0.32
-0.31
-0.34
-0.38
-0.4
-0.39
-0.39
-0.37
-0.3
-0.23
-0.2
-0.17
-0.12
-0.12
-0.14
-0.13
-0.12
-0.15
-0.16
-0.13
-0.14
-0.17
-0.16
-0.16
-0.18
-0.2
-0.17
-0.18
-0.19
-0.2
-0.18
-0.17
-0.2
-0.17
-0.17
-0.18
-0.2
-0.19
-0.19
-0.22
-0.21
-0.2
-0.23
-0.25
-0.2
-0.2
-0.21
-0.22
-0.2
-0.21
-0.23
-0.19
-0.21
-0.22
-0.21
-0.15
-0.13
-0.13
-0.07
0.02
0.17
0.11
0.17
0.09
-0.01
0.02
-0.02
-0.19
-0.26
-0.22
-0.22
-0.22
-0.4
0.04
1.66
4.8
5.11
4.14
-0.12
-0.47
-0.37
-0.3
-0.38
-0.38
-0.39
-0.4
-0.41
-0.38
-0.39
-0.38
-0.35
-0.33
-0.33
-0.33
-0.3
-0.3
-0.31
-0.3
-0.29
-0.3
-0.33
-0.3
-0.32
-0.36
-0.38
-0.38
-0.43
-0.46
-0.43
-0.4
-0.36
-0.3
-0.19
-0.13
-0.1
-0.04
-0.03
-0.04
-0.05
-0.03
-0.05
-0.04
-0.03
-0.03
-0.04
-0.08
-0.05
-0.06
-0.08
-0.09
-0.08
-0.11
-0.14
-0.11
-0.11
-0.14
-0.14
-0.11
-0.12
-0.14
-0.13
-0.12
-0.14
-0.16
-0.13
-0.13
-0.15
-0.13
-0.13
-0.14
-0.16
-0.12
-0.13
-0.15
-0.13
-0.12
-0.14
-0.14
-0.07
-0.06
-0.05
-0.04
0.12
0.28
0.2
0.27
0.16
0.07
0.06
0.02
-0.13
-0.18
-0.16
-0.15
-0.17
-0.4
0.32
2.26
5.11
5.11
3.83
-0.4
-0.36
-0.25
-0.21
-0.3
-0.33
-0.31
-0.32
-0.33
-0.31
-0.3
-0.32
-0.31
-0.27
-0.25
-0.26
-0.25
-0.25
-0.24
-0.27
-0.23
-0.23
-0.25
-0.26
-0.26
-0.3
-0.34
-0.33
-0.37
-0.41
-0.4
-0.35
-0.3
-0.23
-0.13
-0.07
-0.05
-0.02
0
-0.01
-0.03
0.01
0
-0.02
-0.04
-0.02
-0.03
-0.05
-0.03
-0.03
-0.07
-0.07
-0.05
-0.08
-0.09
-0.08
-0.09
-0.11
-0.12
-0.1
-0.11
-0.12
-0.12
-0.12
-0.13
-0.14
-0.1
-0.11
-0.13
-0.12
-0.11
-0.12
-0.15
-0.12
-0.11
-0.13
-0.15
-0.13
-0.13
-0.13
-0.1
-0.04
-0.04
-0.01
0.04
0.15
0.3
0.27
0.29
0.17
0.09
0.11
0.03
-0.12
-0.12
-0.11
-0.13
-0.15
-0.32
0.43
2.58
5.11
5.11
3.22
-0.6
-0.32
-0.17
-0.22
-0.27
-0.27
-0.27
-0.3
-0.26
-0.26
-0.27
-0.28
-0.26
-0.26
-0.27
-0.22
-0.23
-0.25
-0.26
-0.23
-0.24
-0.26
-0.25
-0.26
-0.31
-0.34
-0.35
-0.37
-0.44
-0.43
-0.44
-0.41
-0.36
-0.24
-0.17
-0.11
-0.06
-0.03
-0.02
-0.04
0.01
-0.01
-0.02
-0.02
-0.03
-0.05
-0.05
-0.03
-0.02
-0.05
-0.08
-0.04
-0.04
-0.06
-0.06
-0.05
-0.08
-0.1
-0.07
-0.07
-0.08
-0.08
-0.08
-0.1
-0.14
-0.09
-0.09
-0.12
-0.14
-0.13
-0.16
-0.15
-0.11
-0.12
-0.15
-0.15
-0.12
-0.14
-0.15
-0.11
-0.06
-0.06
-0.04
0.03
0.13
0.26
0.22
0.24
0.15
0.05
0.06
0.01
-0.15
-0.18
-0.15
-0.15
-0.18
-0.31
0.59
2.53
5.11
5.11
3.6
-0.56
-0.37
-0.27
-0.27
-0.32
-0.33
-0.3
-0.33
-0.34
-0.31
-0.32
-0.32
-0.29
-0.26
-0.29
-0.28
-0.27
-0.27
-0.25
-0.25
-0.23
-0.25
-0.27
-0.25
-0.26
-0.29
-0.27
-0.29
-0.34
-0.37
-0.34
-0.33
-0.3
-0.21
-0.15
-0.13
-0.11
-0.08
-0.08
-0.1
-0.11
-0.09
-0.11
-0.13
-0.11
-0.13
-0.15
-0.15
-0.13
-0.15
-0.16
-0.14
-0.12
-0.15
-0.16
-0.13
-0.13
-0.15
-0.13
-0.14
-0.16
-0.18
-0.16
-0.17
-0.2
-0.21
-0.2
-0.2
-0.23
-0.19
-0.18
-0.21
-0.21
-0.17
-0.18
-0.15
-0.09
-0.07
-0.07
0.14
0.21
0.22
0.19
0.1
0.08
0.04
-0.11
-0.17
-0.19
-0.2
-0.16
-0.19
-0.34
0.72
3.51
5.11
5.11
2.19
-0.63
-0.44
-0.24
-0.28
-0.3
-0.33
-0.35
-0.32
-0.33
-0.35
-0.3
-0.29
-0.31
-0.3
-0.27
-0.27
-0.28
-0.25
-0.25
-0.26
-0.27
-0.26
-0.27
-0.31
-0.29
-0.3
-0.36
-0.39
-0.39
-0.41
-0.42
-0.35
-0.27
-0.2
-0.14
-0.06
-0.04
-0.06
-0.03
-0.03
-0.05
-0.08
-0.05
-0.05
-0.08
-0.08
-0.06
-0.09
-0.11
-0.09
-0.09
-0.12
-0.12
-0.11
-0.13
-0.15
-0.13
-0.14
-0.15
-0.16
-0.16
-0.17
-0.19
-0.16
-0.17
-0.18
-0.2
-0.17
-0.19
-0.2
-0.18
-0.2
-0.2
-0.21
-0.17
-0.17
-0.2
-0.17
-0.17
-0.14
-0.12
-0.09
-0.03
-0.01
0.23
0.2
0.19
0.14
0.07
0.06
0.01
-0.12
-0.19
-0.2
-0.22
-0.17
-0.28
-0.15
1.25
4.49
5.11
4.43
0.21
-0.39
-0.39
-0.27
-0.34
-0.37
-0.39
-0.36
-0.36
-0.36
-0.39
-0.33
-0.35
-0.36
-0.34
-0.32
-0.34
-0.35
-0.32
-0.32
-0.33
-0.33
-0.31
-0.35
-0.37
-0.37
-0.4
-0.45
-0.49
-0.49
-0.51
-0.5
-0.42
-0.35
-0.27
-0.2
-0.13
-0.11
-0.12
-0.08
-0.09
-0.1
-0.12
-0.09
-0.1
-0.13
-0.12
-0.11
-0.15
-0.16
-0.14
-0.14
-0.16
-0.16
-0.15
-0.17
-0.2
-0.16
-0.18
-0.19
-0.19
-0.18
-0.19
-0.22
-0.18
-0.2
-0.21
-0.21
-0.21
-0.21
-0.22
-0.19
-0.19
-0.22
-0.21
-0.19
-0.16
-0.12
-0.11
-0.06
-0.05
0.18
0.2
0.21
0.13
0.06
0.04
-0.02
-0.17
-0.2
-0.23
-0.24
-0.21
-0.27
-0.25
0.96
4.04
5.11
4.89
1.03
-0.51
-0.45
-0.27
-0.33
-0.36
-0.39
-0.4
-0.37
-0.38
-0.39
-0.37
-0.35
-0.37
-0.38
-0.34
-0.35
-0.36
-0.34
-0.32
-0.34
-0.34
-0.31
-0.34
-0.36
-0.37
-0.39
-0.43
-0.5
-0.5
-0.5
-0.5
-0.42
-0.33
-0.27
-0.22
-0.13
-0.11
-0.12
-0.12
-0.09
-0.09
-0.11
-0.08
-0.11
-0.14
-0.13
-0.11
-0.14
-0.15
-0.14
-0.15
-0.17
-0.2
-0.17
-0.2
-0.2
-0.2
-0.2
-0.22
-0.23
-0.18
-0.18
-0.21
-0.2
-0.18
-0.21
-0.23
-0.19
-0.2
-0.22
-0.22
-0.2
-0.21
-0.22
-0.18
-0.18
-0.14
-0.14
-0.06
0.01
0.2
0.18
0.23
0.09
0.02
0.02
-0.06
-0.21
-0.23
-0.23
-0.25
-0.24
-0.36
0.12
1.86
5.09
5.11
3.94
-0.42
-0.4
-0.4
-0.3
-0.37
-0.4
-0.42
-0.43
-0.37
-0.39
-0.39
-0.39
-0.34
-0.37
-0.37
-0.34
-0.32
-0.35
-0.33
-0.31
-0.32
-0.33
-0.29
-0.3
-0.34
-0.34
-0.35
-0.37
-0.43
-0.41
-0.42
-0.4
-0.34
-0.26
-0.19
-0.14
-0.11
-0.08
-0.09
-0.11
-0.08
-0.12
-0.15
-0.11
-0.13
-0.14
-0.17
-0.16
-0.16
-0.19
-0.15
-0.15
-0.19
-0.18
-0.18
-0.18
-0.2
-0.19
-0.19
-0.19
-0.22
-0.19
-0.22
-0.25
-0.23
-0.26
-0.26
-0.28
-0.27
-0.28
-0.31
-0.3
-0.28
-0.28
-0.27
-0.22
-0.2
0.01
0.02
0.04
-0.04
-0.15
-0.16
-0.22
-0.38
-0.4
-0.41
-0.4
-0.41
-0.46
-0.25
1.04
4.14
5.11
4.73
0.55
-0.53
-0.58
-0.34
-0.44
-0.42
-0.44
-0.45
-0.42
-0.4
-0.41
-0.4
-0.36
-0.35
-0.35
-0.31
-0.3
-0.3
-0.3
-0.27
-0.26
-0.29
-0.26
-0.26
-0.29
-0.32
-0.31
-0.35
-0.4
-0.41
-0.41
-0.39
-0.35
-0.25
-0.18
-0.13
-0.1
-0.04
-0.05
-0.06
-0.04
-0.05
-0.06
-0.08
-0.05
-0.08
-0.11
-0.08
-0.08
-0.12
-0.11
-0.11
-0.12
-0.15
-0.12
-0.11
-0.12
-0.13
-0.11
-0.13
-0.13
-0.11
-0.09
-0.11
-0.12
-0.1
-0.11
-0.15
-0.12
-0.11
-0.13
-0.13
-0.12
-0.12
-0.14
-0.09
-0.05
-0.05
-0.04
0.14
0.3
0.24
0.28
0.17
0.14
0.07
0.01
-0.12
-0.17
-0.17
-0.14
-0.14
-0.37
0.25
2.13
5.11
5.11
3.72
-0.46
-0.37
-0.26
-0.23
-0.3
-0.33
-0.3
-0.3
-0.33
-0.32
-0.29
-0.3
-0.31
-0.26
-0.27
-0.28
-0.28
-0.25
-0.25
-0.25
-0.23
-0.24
-0.27
-0.29
-0.28
-0.31
-0.36
-0.38
-0.4
-0.42
-0.43
-0.36
-0.3
-0.23
-0.15
-0.07
-0.02
-0.03
0.03
0.02
0.01
-0.01
0.02
0.01
-0.01
0.01
0
-0.03
-0.06
-0.03
-0.06
-0.07
-0.06
-0.06
-0.09
-0.11
-0.08
-0.09
-0.12
-0.1
-0.1
-0.12
-0.13
-0.1
-0.11
-0.12
-0.13
-0.12
-0.14
-0.14
-0.11
-0.11
-0.12
-0.13
-0.11
-0.1
-0.07
0
0.03
0.02
0.25
0.34
0.31
0.3
0.2
0.18
0.14
0.01
-0.08
-0.1
-0.11
-0.09
-0.09
-0.29
0.7
3.32
5.11
5.11
2.87
-0.62
-0.36
-0.19
-0.22
-0.26
-0.29
-0.31
-0.28
-0.28
-0.29
-0.26
-0.25
-0.26
-0.28
-0.23
-0.24
-0.25
-0.23
-0.22
-0.23
-0.24
-0.22
-0.23
-0.25
-0.26
-0.26
-0.31
-0.36
-0.35
-0.37
-0.37
-0.32
-0.23
-0.16
-0.1
0
0.03
0.03
0.02
0.05
0.04
0.01
0.04
0.04
0.02
0
0.02
0.01
-0.01
-0.01
0
-0.02
-0.03
-0.02
-0.03
-0.06
-0.04
-0.05
-0.06
-0.08
-0.06
-0.06
-0.08
-0.07
-0.07
-0.07
-0.11
-0.06
-0.08
-0.08
-0.08
-0.07
-0.08
-0.1
-0.07
-0.07
-0.07
-0.02
0.01
0.02
0.05
0.17
0.36
0.29
0.32
0.24
0.15
0.14
0.09
-0.04
-0.12
-0.12
-0.08
-0.08
-0.3
0.44
2.4
5.11
5.11
3.61
-0.44
-0.32
-0.22
-0.2
-0.27
-0.3
-0.29
-0.28
-0.29
-0.28
-0.24
-0.26
-0.25
-0.23
-0.23
-0.23
-0.22
-0.2
-0.21
-0.21
-0.18
-0.18
-0.2
-0.22
-0.21
-0.24
-0.3
-0.3
-0.35
-0.35
-0.36
-0.29
-0.28
-0.2
-0.09
-0.03
-0.02
-0.03
0.01
0.02
-0.02
-0.01
0
-0.03
-0.06
-0.04
-0.07
-0.09
-0.08
-0.08
-0.09
-0.11
-0.09
-0.08
-0.11
-0.11
-0.12
-0.11
-0.12
-0.12
-0.13
-0.17
-0.15
-0.12
-0.13
-0.15
-0.15
-0.13
-0.15
-0.16
-0.16
-0.16
-0.17
-0.18
-0.14
-0.12
-0.13
-0.06
-0.03
0.19
0.16
0.23
0.15
0.03
0.01
-0.03
-0.15
-0.26
-0.24
-0.23
-0.26
-0.31
-0.22
1.07
4.04
5.11
5.11
1.45
-0.68
-0.55
-0.29
-0.39
-0.4
-0.39
-0.4
-0.43
-0.38
-0.37
-0.39
-0.37
-0.34
-0.34
-0.36
-0.33
-0.31
-0.33
-0.33
-0.29
-0.3
-0.31
-0.28
-0.29
-0.3
-0.34
-0.33
-0.36
-0.4
-0.42
-0.38
-0.37
-0.33
-0.25
-0.2
-0.17
-0.17
-0.12
-0.13
-0.16
-0.15
-0.15
-0.18
-0.2
-0.17
-0.2
-0.23
-0.22
-0.2
-0.23
-0.24
-0.2
-0.21
-0.23
-0.23
-0.2
-0.21
-0.23
-0.2
-0.21
-0.23
-0.24
-0.22
-0.23
-0.24
-0.23
-0.22
-0.25
-0.27
-0.23
-0.24
-0.25
-0.25
-0.24
-0.25
-0.23
-0.16
-0.13
-0.14
0
0.16
0.11
0.13
0.02
-0.03
-0.07
-0.17
-0.27
-0.29
-0.3
-0.28
-0.28
-0.49
0.09
2.04
5.11
5.11
3.61
-0.63
-0.5
-0.42
-0.38
-0.43
-0.46
-0.47
-0.45
-0.46
-0.46
-0.44
-0.42
-0.43
-0.44
-0.41
-0.4
-0.43
-0.41
-0.38
-0.4
-0.4
-0.38
-0.39
-0.41
-0.43
-0.44
-0.48
-0.52
-0.54
-0.54
-0.54
-0.53
-0.44
-0.37
-0.29
-0.21
-0.16
-0.17
-0.18
-0.15
-0.16
-0.17
-0.18
-0.16
-0.19
-0.21
-0.19
-0.2
-0.24
-0.22
-0.22
-0.23
-0.26
-0.23
-0.25
-0.27
-0.29
-0.27
-0.28
-0.29
-0.28
-0.27
-0.3
-0.31
-0.29
-0.3
-0.31
-0.3
-0.3
-0.31
-0.3
-0.28
-0.27
-0.3
-0.26
-0.27
-0.27
-0.22
-0.2
-0.15
-0.14
0.07
0.13
0.1
0.09
0
-0.04
-0.08
-0.17
-0.26
-0.3
-0.3
-0.27
-0.28
-0.47
0.51
3.07
5.11
5.11
2.36
-0.79
-0.54
-0.35
-0.41
-0.45
-0.49
-0.45
-0.47
-0.47
-0.48
-0.46
-0.45
-0.46
-0.42
-0.42
-0.44
-0.44
-0.41
-0.42
-0.43
-0.43
-0.42
-0.45
-0.47
-0.44
-0.47
-0.51
-0.54
-0.55
-0.58
-0.57
-0.5
-0.44
-0.36
-0.28
-0.21
-0.19
-0.19
-0.15
-0.14
-0.16
-0.17
-0.15
-0.16
-0.19
-0.15
-0.17
-0.19
-0.22
-0.18
-0.2
-0.23
-0.2
-0.22
-0.24
-0.27
-0.24
-0.25
-0.27
-0.27
-0.25
-0.28
-0.29
-0.26
-0.27
-0.28
-0.29
-0.27
-0.27
-0.29
-0.26
-0.26
-0.27
-0.27
-0.26
-0.26
-0.29
-0.24
-0.25
-0.23
-0.19
-0.16
-0.12
-0.08
0.15
0.13
0.12
0.06
-0.01
-0.03
-0.07
-0.2
-0.26
-0.29
-0.29
-0.23
-0.3
-0.33
0.85
3.93
5.11
4.81
0.9
-0.53
-0.5
-0.31
-0.37
-0.42
-0.44
-0.42
-0.4
-0.42
-0.43
-0.4
-0.39
-0.4
-0.4
-0.38
-0.4
-0.41
-0.36
-0.38
-0.38
-0.4
-0.38
-0.41
-0.45
-0.44
-0.47
-0.5
-0.54
-0.54
-0.57
-0.56
-0.51
-0.4
-0.33
-0.27
-0.19
-0.15
-0.16
-0.13
-0.11
-0.13
-0.15
-0.13
-0.13
-0.16
-0.16
-0.14
-0.17
-0.2
-0.16
-0.18
-0.17
-0.19
-0.18
-0.19
-0.2
-0.19
-0.2
-0.19
-0.24
-0.19
-0.2
-0.21
-0.19
-0.2
-0.23
-0.21
-0.21
-0.2
-0.25
-0.23
-0.22
-0.24
-0.25
-0.23
-0.18
-0.17
-0.14
-0.1
0.04
0.16
0.16
0.21
0.05
0.01
0
-0.08
-0.24
-0.22
-0.25
-0.23
-0.24
-0.34
0.18
1.8
5.04
5.11
4.11
-0.31
-0.41
-0.42
-0.32
-0.38
-0.41
-0.4
-0.43
-0.4
-0.35
-0.39
-0.39
-0.36
-0.36
-0.36
-0.33
-0.3
-0.33
-0.3
-0.27
-0.27
-0.29
-0.26
-0.27
-0.29
-0.31
-0.29
-0.35
-0.37
-0.38
-0.34
-0.36
-0.31
-0.23
-0.18
-0.15
-0.13
-0.11
-0.14
-0.18
-0.15
-0.16
-0.2
-0.21
-0.19
-0.22
-0.23
-0.22
-0.22
-0.24
-0.24
-0.21
-0.22
-0.24
-0.19
-0.2
-0.23
-0.23
-0.2
-0.21
-0.23
-0.22
-0.22
-0.24
-0.26
-0.23
-0.24
-0.25
-0.23
-0.22
-0.25
-0.27
-0.22
-0.24
-0.26
-0.21
-0.16
-0.17
-0.13
-0.06
0.16
0.11
0.17
0.12
0.01
-0.03
-0.03
-0.18
-0.24
-0.24
-0.21
-0.22
-0.33
-0.1
1.26
4.54
5.11
4.67
0.34
-0.44
-0.44
-0.25
-0.36
-0.38
-0.36
-0.38
-0.39
-0.34
-0.34
-0.34
-0.34
-0.3
-0.31
-0.32
-0.3
-0.3
-0.3
-0.29
-0.26
-0.27
-0.29
-0.28
-0.3
-0.32
-0.37
-0.37
-0.41
-0.45
-0.43
-0.4
-0.35
-0.29
-0.17
-0.12
-0.1
-0.05
-0.04
-0.04
-0.06
-0.03
-0.05
-0.06
-0.04
-0.05
-0.05
-0.09
-0.06
-0.07
-0.08
-0.1
-0.08
-0.11
-0.12
-0.11
-0.1
-0.12
-0.15
-0.12
-0.13
-0.15
-0.14
-0.14
-0.16
-0.18
-0.16
-0.17
-0.21
-0.19
-0.19
-0.22
-0.23
-0.21
-0.22
-0.25
-0.21
-0.17
-0.17
-0.13
-0.06
0.09
0.17
0.14
0.17
0.05
0.01
0.03
-0.07
-0.22
-0.24
-0.21
-0.19
-0.21
-0.37
0.4
2.67
5.11
5.11
3.12
-0.66
-0.42
-0.26
-0.29
-0.36
-0.33
-0.34
-0.34
-0.32
-0.3
-0.31
-0.31
-0.27
-0.27
-0.28
-0.28
-0.26
-0.27
-0.28
-0.25
-0.25
-0.27
-0.29
-0.28
-0.31
-0.34
-0.35
-0.37
-0.44
-0.45
-0.41
-0.38
-0.32
-0.21
-0.13
-0.09
-0.07
-0.02
-0.02
-0.02
-0.02
-0.01
-0.03
-0.05
-0.02
-0.04
-0.08
-0.09
-0.08
-0.09
-0.12
-0.09
-0.1
-0.12
-0.13
-0.11
-0.13
-0.15
-0.12
-0.12
-0.12
-0.15
-0.11
-0.12
-0.13
-0.11
-0.11
-0.14
-0.14
-0.12
-0.13
-0.14
-0.14
-0.13
-0.14
-0.16
-0.13
-0.12
-0.14
-0.14
-0.11
-0.05
-0.1
0
0.04
0.21
0.22
0.23
0.23
0.09
0.09
0.09
-0.05
-0.19
-0.17
-0.17
-0.17
-0.18
-0.31
0.76
3.6
5.11
5.11
1.96
-0.63
-0.41
-0.2
-0.32
-0.31
-0.32
-0.34
-0.33
-0.31
-0.31
-0.33
-0.3
-0.29
-0.3
-0.31
-0.28
-0.29
-0.31
-0.27
-0.26
-0.29
-0.31
-0.28
-0.31
-0.35
-0.35
-0.38
-0.43
-0.48
-0.46
-0.46
-0.43
-0.33
-0.22
-0.17
-0.13
-0.06
-0.05
-0.08
-0.04
-0.05
-0.05
-0.07
-0.05
-0.05
-0.09
-0.08
-0.08
-0.09
-0.13
-0.09
-0.11
-0.13
-0.12
-0.11
-0.12
-0.15
-0.13
-0.13
-0.15
-0.16
-0.14
-0.15
-0.16
-0.15
-0.15
-0.16
-0.18
-0.15
-0.16
-0.18
-0.16
-0.17
-0.16
-0.19
-0.16
-0.16
-0.15
-0.09
-0.06
-0.05
0.04
0.25
0.19
0.2
0.12
0.06
0.01
-0.04
-0.17
-0.22
-0.23
-0.18
-0.18
-0.36
0.33
2.36
5.11
5.11
3.64
-0.49
-0.43
-0.36
-0.29
-0.34
-0.37
-0.37
-0.38
-0.37
-0.39
-0.35
-0.34
-0.36
-0.32
-0.31
-0.33
-0.34
-0.27
-0.27
-0.26
-0.24
-0.25
-0.26
-0.28
-0.27
-0.27
-0.31
-0.34
-0.35
-0.38
-0.39
-0.36
-0.28
-0.23
-0.18
-0.09
-0.1
-0.11
-0.06
-0.06
-0.1
-0.1
-0.12
-0.12
-0.14
-0.1
-0.13
-0.16
-0.15
-0.14
-0.13
-0.16
-0.14
-0.14
-0.18
-0.19
-0.15
-0.18
-0.17
-0.15
-0.15
-0.18
-0.2
-0.19
-0.18
-0.22
-0.16
-0.18
-0.22
-0.26
-0.23
-0.22
-0.23
-0.22
-0.15
-0.17
-0.15
-0.1
0.07
0.14
0.12
0.16
0.02
-0.06
-0.06
-0.15
-0.28
-0.3
-0.28
-0.27
-0.29
